"Time (s)"	"Acceleration x (m/s^2)"	"Acceleration y (m/s^2)"	"Acceleration z (m/s^2)"	"Absolute acceleration (m/s^2)"
3.847121800E-2	2.799602449E-1	-4.785645381E-2	9.777072906E0	9.781197401E0
3.966715500E-2	2.871387303E-1	-2.392822690E-2	9.786644936E0	9.790885573E0
4.086309300E-2	2.919243574E-1	-4.785645287E-3	9.793823242E0	9.798174138E0
4.205903000E-2	2.967100143E-1	-4.785645287E-3	9.820143700E0	9.824626304E0
4.325496800E-2	2.919243574E-1	-1.674975827E-2	9.858428955E0	9.862764412E0
4.445095700E-2	2.847459018E-1	-2.871387079E-2	9.899106979E0	9.903243090E0
4.564689500E-2	2.823530734E-1	-2.392822690E-2	9.934999466E0	9.939039702E0
4.684283200E-2	2.823530734E-1	-1.435693540E-2	9.956535339E0	9.960548446E0
4.803877000E-2	2.799602449E-1	-4.785645287E-3	9.973284721E0	9.977214480E0
4.923475900E-2	2.871387303E-1	0.000000000E0	9.980463028E0	9.984592676E0
5.043069700E-2	3.038884699E-1	7.178467698E-3	9.980463028E0	9.985090985E0
5.162663400E-2	3.182454109E-1	1.914258115E-2	9.980463028E0	9.985554007E0
5.282257200E-2	3.254238665E-1	2.153540403E-2	9.968499184E0	9.973832786E0
5.401856100E-2	3.278166950E-1	2.392822690E-2	9.954142570E0	9.959567795E0
5.521449900E-2	3.349951804E-1	2.632104978E-2	9.944570541E0	9.950246119E0
5.641043600E-2	3.373879790E-1	3.828516230E-2	9.937392235E0	9.943191682E0
5.760637400E-2	3.445664644E-1	5.982056633E-2	9.925428391E0	9.931587652E0
5.880231100E-2	3.469592929E-1	6.699903309E-2	9.908679008E0	9.914978029E0
5.999830100E-2	3.517449200E-1	5.742774159E-2	9.891928673E0	9.898347099E0
6.119423900E-2	3.780659735E-1	3.589234129E-2	9.863214493E0	9.870522898E0
6.239017600E-2	4.019941986E-1	2.153540403E-2	9.834501266E0	9.842737336E0
6.358611400E-2	4.139583111E-1	7.178467698E-3	9.817750931E0	9.826476803E0
6.478205100E-2	4.259224236E-1	-1.674975827E-2	9.815358162E0	9.824609219E0
6.597798900E-2	4.546363056E-1	-3.828516230E-2	9.815358162E0	9.825956227E0
6.717392600E-2	4.857429862E-1	-4.067798331E-2	9.810572624E0	9.822674593E0
6.836991600E-2	5.072783828E-1	-3.349951655E-2	9.812965393E0	9.826125553E0
6.956585300E-2	5.335994363E-1	-3.828516230E-2	9.822537422E0	9.837094872E0
7.076179100E-2	5.742774606E-1	-4.546362907E-2	9.846465111E0	9.863302526E0
7.195772800E-2	6.125625968E-1	-5.024927482E-2	9.872786522E0	9.891899293E0
7.315366600E-2	6.364908218E-1	-5.024927482E-2	9.894321442E0	9.914900017E0
7.434965500E-2	6.580262184E-1	-4.546362907E-2	9.925428391E0	9.947320955E0
7.554559300E-2	6.915257573E-1	-3.589234129E-2	9.956535339E0	9.980585759E0
7.674153000E-2	7.250252366E-1	-3.110669367E-2	9.987641335E0	1.001397067E1
7.793746800E-2	7.513462901E-1	-2.871387079E-2	1.002831936E1	1.005646732E1
7.913345700E-2	7.752745152E-1	-2.392822690E-2	1.007139015E1	1.010121392E1
8.032939500E-2	7.872386575E-1	-1.914258115E-2	1.009292603E1	1.012359950E1
8.152533200E-2	7.968099117E-1	-1.196411345E-2	1.010488987E1	1.013626403E1
8.272127000E-2	8.207381964E-1	-4.785645287E-3	1.011924744E1	1.015247767E1
8.391720700E-2	8.614161611E-1	-1.196411345E-2	1.012642574E1	1.016300543E1
8.511319700E-2	8.949156404E-1	-1.674975827E-2	1.012881851E1	1.016828988E1
8.630913400E-2	9.116654396E-1	-2.392822690E-2	1.010967541E1	1.015072624E1
8.750507200E-2	9.308080077E-1	-2.871387079E-2	1.007856941E1	1.012150134E1
8.870100900E-2	9.475577474E-1	-2.632104978E-2	1.004746246E1	1.009207909E1
8.989694700E-2	9.762716293E-1	-1.674975827E-2	9.997213364E0	1.004478282E1
9.109293600E-2	1.009771109E0	-1.674975827E-2	9.944570541E0	9.995719159E0
9.228887400E-2	1.033699393E0	-1.914258115E-2	9.896714211E0	9.950570488E0
9.348481100E-2	1.045663476E0	-1.435693540E-2	9.844072342E0	9.899463546E0
9.468074900E-2	1.043270707E0	-1.435693540E-2	9.789037704E0	9.844484703E0
9.587668600E-2	1.055234790E0	-9.571290575E-3	9.731609344E0	9.788658361E0
9.707262400E-2	1.071984529E0	-1.196411345E-2	9.667003632E0	9.726266148E0
9.826856100E-2	1.076770186E0	-1.435693540E-2	9.604789734E0	9.664969011E0
9.946455100E-2	1.081555843E0	-2.392822644E-3	9.556933403E0	9.617938700E0
1.006604890E-1	1.076770186E0	1.196411345E-2	9.518648148E0	9.579365309E0
1.018564260E-1	1.064806104E0	1.196411345E-2	9.470791817E0	9.530469706E0
1.030523640E-1	1.060020447E0	2.392822644E-3	9.439684868E0	9.499015711E0
1.042483530E-1	1.052842021E0	-1.196411345E-2	9.430113792E0	9.488712536E0
1.054442910E-1	1.033699393E0	-2.632104978E-2	9.418149948E0	9.474744096E0
1.066402280E-1	1.012163997E0	-3.349951655E-2	9.413364410E0	9.467683333E0
1.078361660E-1	9.882357717E-1	-4.546362907E-2	9.415757179E0	9.467584705E0
1.090321030E-1	1.033699393E0	-9.571290761E-2	9.384650230E0	9.441893631E0
1.102280930E-1	1.150947690E0	-1.746760458E-1	9.305686951E0	9.378219550E0
1.114240300E-1	1.241874933E0	-2.249253243E-1	9.231510162E0	9.317382928E0
1.126199680E-1	1.275374413E0	-2.321037948E-1	9.217152596E0	9.307865171E0
1.138159050E-1	1.261017561E0	-2.392822653E-1	9.238688469E0	9.327421183E0
1.150118950E-1	1.205982566E0	-2.488535494E-1	9.274580956E0	9.355969962E0
1.162078320E-1	1.127019525E0	-2.464607358E-1	9.339186668E0	9.410171281E0
1.174037700E-1	1.043270707E0	-2.416750938E-1	9.432506561E0	9.493102793E0
1.185997070E-1	9.643075466E-1	-2.368894368E-1	9.525827408E0	9.577441906E0
1.197956450E-1	8.781659007E-1	-2.392822653E-1	9.602396965E0	9.645437202E0
1.209915820E-1	7.800601721E-1	-2.392822653E-1	9.655039787E0	9.689455257E0
1.221875200E-1	6.915257573E-1	-2.321037948E-1	9.698110580E0	9.725504042E0
1.233834570E-1	6.125625968E-1	-2.321037948E-1	9.741181374E0	9.763181841E0
1.245794470E-1	5.431707501E-1	-2.416750938E-1	9.774680138E0	9.792742880E0
1.257753840E-1	4.809573591E-1	-2.416750938E-1	9.801001549E0	9.815770891E0
1.269713220E-1	4.307080805E-1	-2.321037948E-1	9.832108498E0	9.844274434E0
1.281672590E-1	3.708875179E-1	-2.177468538E-1	9.853643417E0	9.863024883E0
1.293632490E-1	3.134597540E-1	-1.986042857E-1	9.853643417E0	9.860628239E0
1.305591860E-1	2.823530734E-1	-1.914258152E-1	9.844072342E0	9.849981085E0
1.317551240E-1	2.560320199E-1	-1.890329868E-1	9.834501266E0	9.839649436E0
1.329510610E-1	2.297109663E-1	-1.770688742E-1	9.832108498E0	9.836385415E0
1.341469990E-1	2.153540403E-1	-1.603191197E-1	9.824930191E0	9.828597705E0
1.353429890E-1	2.153540403E-1	-1.316052526E-1	9.812965393E0	9.816210425E0
1.365389260E-1	2.153540403E-1	-1.028913707E-1	9.808179855E0	9.811083328E0
1.377348640E-1	2.201396823E-1	-9.332008660E-2	9.812965393E0	9.815877950E0
1.389308010E-1	2.321037948E-1	-7.896314561E-2	9.812965393E0	9.816027565E0
1.401267390E-1	2.416750938E-1	-6.939185411E-2	9.810572624E0	9.813794235E0
1.413226760E-1	2.464607358E-1	-6.939185411E-2	9.808179855E0	9.811521299E0
1.425186140E-1	2.608176768E-1	-6.939185411E-2	9.820143700E0	9.823851758E0
1.437146030E-1	2.703889608E-1	-5.503492057E-2	9.846465111E0	9.850330665E0
1.449105410E-1	2.775674164E-1	-4.546362907E-2	9.870393753E0	9.874400410E0
1.461064780E-1	2.847459018E-1	-4.307080805E-2	9.896714211E0	9.900903367E0
1.473024160E-1	2.775674164E-1	-4.067798331E-2	9.918250084E0	9.922216642E0
1.484984050E-1	2.847459018E-1	-4.307080805E-2	9.930213928E0	9.934388959E0
1.496949160E-1	3.038884699E-1	-3.349951655E-2	9.920642853E0	9.925352640E0
1.508902800E-1	3.302095234E-1	-2.392822690E-2	9.906285286E0	9.911816133E0
1.520862180E-1	3.613162339E-1	-1.914258115E-2	9.901499748E0	9.908108453E0
1.532821550E-1	3.972085714E-1	-9.571290575E-3	9.889535904E0	9.897514165E0
1.544781450E-1	4.307080805E-1	0.000000000E0	9.868000984E0	9.877396057E0
1.556740820E-1	4.522434771E-1	1.435693540E-2	9.836894035E0	9.847294783E0
1.568700200E-1	4.809573591E-1	3.110669367E-2	9.805787086E0	9.817624356E0
1.580659570E-1	5.072783828E-1	4.067798331E-2	9.777072906E0	9.790308508E0
1.592618950E-1	5.312066078E-1	4.307080805E-2	9.748359680E0	9.762917187E0
1.604578840E-1	5.694918036E-1	3.110669367E-2	9.722038269E0	9.738753341E0
1.616538220E-1	6.149554253E-1	1.196411345E-2	9.686145782E0	9.705654714E0
1.628497590E-1	6.795616150E-1	-7.178467698E-3	9.645467758E0	9.669379701E0
1.640456970E-1	7.369893789E-1	-2.392822690E-2	9.619147301E0	9.647368589E0
1.652416860E-1	7.728816867E-1	-3.349951655E-2	9.597611427E0	9.628738932E0
1.664376240E-1	8.015955687E-1	-4.307080805E-2	9.576076508E0	9.609664501E0
1.676335610E-1	8.231309652E-1	-5.024927482E-2	9.566504478E0	9.601982999E0
1.688294990E-1	8.374879360E-1	-5.742774159E-2	9.566504478E0	9.603264649E0
1.700254360E-1	8.350951076E-1	-7.896314561E-2	9.578469276E0	9.615128324E0
1.712214260E-1	8.159525394E-1	-1.052841991E-1	9.585647583E0	9.620888883E0
1.724173640E-1	8.063812256E-1	-1.172483116E-1	9.588040352E0	9.622604410E0
1.736133010E-1	8.015955687E-1	-1.268195957E-1	9.597611427E0	9.631862944E0
1.748092390E-1	7.800601721E-1	-1.459621787E-1	9.607182503E0	9.639904277E0
1.760051760E-1	7.537391186E-1	-1.722832322E-1	9.607182503E0	9.638244644E0
1.772011140E-1	7.226324677E-1	-1.842473447E-1	9.600004196E0	9.628926489E0
1.783970510E-1	6.843472719E-1	-1.890329868E-1	9.592825890E0	9.619063011E0
1.795930410E-1	6.532405615E-1	-1.986042857E-1	9.590433121E0	9.614706149E0
1.807889780E-1	6.125625968E-1	-2.129612118E-1	9.585647583E0	9.607560825E0
1.819849160E-1	5.718846321E-1	-2.249253243E-1	9.559326172E0	9.579058424E0
1.831808530E-1	5.288137794E-1	-2.249253243E-1	9.516255379E0	9.533590711E0
1.843768430E-1	4.666004181E-1	-2.225325108E-1	9.480362892E0	9.494446652E0
1.855727800E-1	4.043870270E-1	-2.225325108E-1	9.454042435E0	9.465303373E0
1.867687180E-1	3.469592929E-1	-2.153540403E-1	9.430113792E0	9.438951438E0
1.879646550E-1	2.967100143E-1	-2.129612118E-1	9.413364410E0	9.420446849E0
1.891605930E-1	2.632105052E-1	-2.129612118E-1	9.403793335E0	9.409886361E0
1.903565820E-1	2.201396823E-1	-2.153540403E-1	9.403793335E0	9.408834568E0
1.915525200E-1	1.722832322E-1	-2.225325108E-1	9.406186104E0	9.410395276E0
1.927484570E-1	1.411765367E-1	-2.225325108E-1	9.406186104E0	9.409877181E0
1.939443950E-1	1.124626622E-1	-2.081755698E-1	9.420542717E0	9.423513676E0
1.951403320E-1	7.896314561E-2	-1.914258152E-1	9.444471359E0	9.446741146E0
1.963363220E-1	5.024927482E-2	-1.770688742E-1	9.470791817E0	9.472580219E0
1.975322590E-1	2.632104978E-2	-1.627119333E-1	9.497113228E0	9.498543448E0
1.987281970E-1	-4.785645287E-3	-1.292124242E-1	9.516255379E0	9.517133769E0
1.999241340E-1	-3.589234129E-2	-8.614161611E-2	9.542576790E0	9.543033083E0
2.011200720E-1	-6.460621208E-2	-5.024927482E-2	9.576076508E0	9.576426277E0
2.023160090E-1	-8.374879509E-2	-7.178467698E-3	9.604789734E0	9.605157532E0
2.035119990E-1	-9.810572863E-2	3.589234129E-2	9.616754532E0	9.617321910E0
2.047079360E-1	-1.148554832E-1	7.417750359E-2	9.626325607E0	9.627296546E0
2.059038740E-1	-1.292124242E-1	9.810572863E-2	9.635896683E0	9.637262343E0
2.070998110E-1	-1.124626622E-1	1.004985496E-1	9.645467758E0	9.646646883E0
2.082957490E-1	-7.178468257E-2	9.332008660E-2	9.645467758E0	9.646186291E0
2.094917390E-1	-3.589234129E-2	8.614161611E-2	9.640682220E0	9.641133871E0
2.106876760E-1	-1.435693540E-2	8.374879509E-2	9.643074989E0	9.643449343E0
2.118836140E-1	2.392822644E-3	8.135596663E-2	9.640682220E0	9.641025785E0
2.130795510E-1	2.632104978E-2	7.417750359E-2	9.631111145E0	9.631432759E0
2.142754890E-1	6.460621208E-2	6.939185411E-2	9.626325607E0	9.626792503E0
2.154714780E-1	1.100698411E-1	6.221338734E-2	9.628718376E0	9.629548455E0
2.166674160E-1	1.531406492E-1	4.307080805E-2	9.633503914E0	9.634817321E0
2.178633530E-1	1.938186288E-1	1.435693540E-2	9.640682220E0	9.642641000E0
2.190592910E-1	2.440679073E-1	-1.196411345E-2	9.655039787E0	9.658131578E0
2.202552280E-1	2.967100143E-1	-3.589234129E-2	9.662218094E0	9.666839379E0
2.214512180E-1	3.445664644E-1	-6.460621208E-2	9.669396400E0	9.675749416E0
2.226471550E-1	3.828516304E-1	-9.332008660E-2	9.671789169E0	9.679813518E0
2.238430930E-1	4.019941986E-1	-1.268195957E-1	9.667003632E0	9.676189423E0
2.250390300E-1	4.259224236E-1	-1.603191197E-1	9.655039787E0	9.665759433E0
2.262349680E-1	4.546363056E-1	-1.818545163E-1	9.635896683E0	9.648329913E0
2.274309570E-1	4.785645306E-1	-2.009970993E-1	9.614361763E0	9.628363098E0
2.286268950E-1	4.833501875E-1	-2.297109663E-1	9.590433121E0	9.605352777E0
2.298228320E-1	4.761717021E-1	-2.560320199E-1	9.571290970E0	9.586548008E0
2.310187700E-1	4.809573591E-1	-2.823530734E-1	9.559326172E0	9.575581450E0
2.322147070E-1	4.953143001E-1	-3.014956415E-1	9.554540634E0	9.572120069E0
2.334106450E-1	5.048855543E-1	-3.254238665E-1	9.542576790E0	9.561463377E0
2.346065820E-1	5.096712112E-1	-3.517449200E-1	9.528220177E0	9.548322835E0
2.358025200E-1	5.168496966E-1	-3.780659735E-1	9.516255379E0	9.537776676E0
2.369985090E-1	5.096712112E-1	-3.996013701E-1	9.511469841E0	9.533493826E0
2.381944470E-1	4.498506486E-1	-4.067798555E-1	9.501898766E0	9.521234983E0
2.393903840E-1	2.464607358E-1	-3.732803464E-1	9.482755661E0	9.493299534E0
2.405863740E-1	-3.110669367E-2	-3.349951804E-1	9.494720459E0	9.500679238E0
2.417823110E-1	-2.392822653E-1	-3.206382394E-1	9.504291534E0	9.512708471E0
2.429782490E-1	-3.876372576E-1	-3.134597540E-1	9.516255379E0	9.529304072E0
2.441741860E-1	-4.905286431E-1	-3.206382394E-1	9.549755096E0	9.567719145E0
2.453701240E-1	-5.359922647E-1	-3.302095234E-1	9.580862045E0	9.601522982E0
2.465661140E-1	-5.359922647E-1	-3.373879790E-1	9.604789734E0	9.625648248E0
2.477620510E-1	-5.503492355E-1	-3.278166950E-1	9.602396965E0	9.623740205E0
2.489579890E-1	-5.742774606E-1	-2.967100143E-1	9.566504478E0	9.588317859E0
2.501539260E-1	-5.982056856E-1	-2.536391914E-1	9.518648148E0	9.540798994E0
2.513498640E-1	-6.293123364E-1	-1.938186288E-1	9.482755661E0	9.505590703E0
2.525458530E-1	-6.340979934E-1	-1.483550072E-1	9.461220741E0	9.483606244E0
2.537417910E-1	-5.958128572E-1	-1.220339537E-1	9.456435204E0	9.475972351E0
2.549377280E-1	-5.024927258E-1	-8.853443712E-2	9.456435204E0	9.470190286E0
2.561336660E-1	-3.756731451E-1	-6.460621208E-2	9.442078590E0	9.449769964E0
2.573296030E-1	-2.727817893E-1	-3.349951655E-2	9.418149948E0	9.422159018E0
2.585255930E-1	-1.698904037E-1	-7.178467698E-3	9.408578873E0	9.410115338E0
2.597215300E-1	-7.417750359E-2	7.178467698E-3	9.408578873E0	9.408874015E0
2.609174680E-1	4.785645287E-3	1.914258115E-2	9.408578873E0	9.408599563E0
2.621134050E-1	8.614161611E-2	2.632104978E-2	9.422935486E0	9.423365978E0
2.633093430E-1	1.698904037E-1	3.110669367E-2	9.470791817E0	9.472366548E0
2.645052800E-1	2.344966233E-1	3.589234129E-2	9.535398483E0	9.538348975E0
2.657012180E-1	2.895315289E-1	3.349951655E-2	9.592825890E0	9.597252694E0
2.668972070E-1	3.397808075E-1	1.914258115E-2	9.645467758E0	9.651469614E0
2.680931450E-1	3.804588020E-1	1.196411345E-2	9.700503349E0	9.707968751E0
2.692890820E-1	4.259224236E-1	-2.392822644E-3	9.748359680E0	9.757660175E0
2.704850200E-1	4.785645306E-1	-3.110669367E-2	9.789037704E0	9.800778072E0
2.716810090E-1	5.503492355E-1	-6.460621208E-2	9.815358162E0	9.830987442E0
2.728769470E-1	6.221339107E-1	-1.028913707E-1	9.829715729E0	9.849921246E0
2.740728840E-1	6.843472719E-1	-1.363908947E-1	9.839286804E0	9.864000126E0
2.752688220E-1	7.345965505E-1	-1.579262912E-1	9.848857880E0	9.877478137E0
2.764648110E-1	7.776673436E-1	-1.770688742E-1	9.858428955E0	9.890639077E0
2.776607490E-1	8.279166222E-1	-1.938186288E-1	9.868000984E0	9.904567382E0
2.788566860E-1	8.662018180E-1	-2.033899277E-1	9.882357597E0	9.922331618E0
2.800526240E-1	8.925228715E-1	-2.081755698E-1	9.911071777E0	9.953355109E0
2.812485610E-1	9.164510965E-1	-2.201396823E-1	9.949356079E0	9.993899663E0
2.824444990E-1	9.308080077E-1	-2.297109663E-1	9.982855797E0	1.002878759E1
2.836404890E-1	9.332008362E-1	-2.057827413E-1	1.001635551E1	1.006183821E1
2.848364260E-1	9.379864931E-1	-1.818545163E-1	1.005464077E1	1.009993518E1
2.860323640E-1	9.403793216E-1	-1.627119333E-1	1.008814049E1	1.013318148E1
2.872283010E-1	9.475577474E-1	-1.507478207E-1	1.011924744E1	1.016463277E1
2.884242390E-1	9.547362328E-1	-1.387837082E-1	1.014796066E1	1.019371806E1
2.896202280E-1	9.523434043E-1	-1.244267747E-1	1.017428207E1	1.021951348E1
2.908161660E-1	9.332008362E-1	-1.316052526E-1	1.019581699E1	1.023928063E1
2.920121030E-1	9.140582681E-1	-1.363908947E-1	1.021017456E1	1.025191541E1
2.932080410E-1	9.044869542E-1	-1.387837082E-1	1.021256733E1	1.025348180E1
2.944039780E-1	8.949156404E-1	-1.387837082E-1	1.021496010E1	1.025502534E1
2.955999160E-1	8.949156404E-1	-1.316052526E-1	1.021256733E1	1.025254726E1
2.967959050E-1	8.877372146E-1	-1.363908947E-1	1.020299530E1	1.024245053E1
2.979918430E-1	8.829515576E-1	-1.603191197E-1	1.018624592E1	1.022569859E1
2.991877800E-1	8.709874153E-1	-1.818545163E-1	1.016710377E1	1.020596341E1
3.003837180E-1	8.590233326E-1	-2.033899277E-1	1.014796066E1	1.018628461E1
3.015797070E-1	8.685946465E-1	-2.201396823E-1	1.013360405E1	1.017314352E1
3.027756450E-1	8.781659007E-1	-2.273181528E-1	1.013121128E1	1.017173982E1
3.039715820E-1	8.757730722E-1	-2.249253243E-1	1.012881851E1	1.016909703E1
3.051675200E-1	8.709874153E-1	-2.249253243E-1	1.012881851E1	1.016868600E1
3.063634570E-1	8.829515576E-1	-2.321037948E-1	1.013121128E1	1.017226217E1
3.075593950E-1	8.949156404E-1	-2.392822653E-1	1.014078236E1	1.018300529E1
3.087553840E-1	9.044869542E-1	-2.536391914E-1	1.016231823E1	1.020564262E1
3.099513220E-1	9.284151793E-1	-2.679961324E-1	1.017906761E1	1.022483223E1
3.111472590E-1	9.499505758E-1	-2.823530734E-1	1.018624592E1	1.023434098E1
3.123431970E-1	9.690931439E-1	-3.014956415E-1	1.020299530E1	1.025334844E1
3.135391340E-1	9.858429432E-1	-3.278166950E-1	1.021974564E1	1.027241700E1
3.147351240E-1	9.954141974E-1	-3.637090325E-1	1.023170948E1	1.028644801E1
3.159310610E-1	9.930213690E-1	-3.996013701E-1	1.024606609E1	1.030182717E1
3.171269990E-1	1.007378340E0	-4.307080805E-1	1.026520920E1	1.032350912E1
3.183229360E-1	1.028913736E0	-4.642075896E-1	1.029631615E1	1.035800552E1
3.195188740E-1	1.045663476E0	-5.024927258E-1	1.032742214E1	1.039237986E1
3.207148640E-1	1.062413216E0	-5.359922647E-1	1.034656525E1	1.041476941E1
3.219108010E-1	1.079162955E0	-5.694918036E-1	1.035613632E1	1.042777412E1
3.231067390E-1	1.100698471E0	-6.029912829E-1	1.036092186E1	1.043665834E1
3.243026760E-1	1.122233868E0	-6.245267391E-1	1.035374355E1	1.043309389E1
3.254986140E-1	1.134197950E0	-6.388836503E-1	1.033460140E1	1.041626437E1
3.266946030E-1	1.131805062E0	-6.484549642E-1	1.030588722E1	1.038810801E1
3.278905410E-1	1.124626637E0	-6.412764788E-1	1.026760197E1	1.034889708E1
3.290864780E-1	1.110269666E0	-6.269195080E-1	1.022453117E1	1.030372576E1
3.302824160E-1	1.093519926E0	-6.173482537E-1	1.018624592E1	1.026335767E1
3.314783530E-1	1.088734269E0	-6.053841114E-1	1.015035343E1	1.022651001E1
3.326742910E-1	1.069591761E0	-5.862415433E-1	1.010967541E1	1.018298790E1
3.338702800E-1	1.048056364E0	-5.670989752E-1	1.006181908E1	1.013213830E1
3.350662180E-1	1.031306505E0	-5.575276613E-1	1.001156998E1	1.007997835E1
3.362621550E-1	1.002592683E0	-5.599204898E-1	9.966106415E0	1.003204765E1
3.374580930E-1	9.619147182E-1	-5.575276613E-1	9.923035622E0	9.985126587E0
3.386540300E-1	9.212366939E-1	-5.503492355E-1	9.879964828E0	9.938071560E0
3.398500200E-1	8.925228715E-1	-5.479564071E-1	9.844072342E0	9.899626941E0
3.410459570E-1	8.709874153E-1	-5.479564071E-1	9.810572624E0	9.864391036E0
3.422418950E-1	8.350951076E-1	-5.359922647E-1	9.781859398E0	9.832062084E0
3.434378320E-1	7.896314859E-1	-5.216353536E-1	9.755537987E0	9.801333722E0
3.446337700E-1	7.417750359E-1	-5.072783828E-1	9.736394882E0	9.777778217E0
3.458297590E-1	6.963114142E-1	-4.953143001E-1	9.726823807E0	9.764286313E0
3.470256970E-1	6.652047038E-1	-4.809573591E-1	9.710074425E0	9.744709468E0
3.482216340E-1	6.412764788E-1	-4.618147612E-1	9.683753014E0	9.715944670E0
3.494175720E-1	6.125625968E-1	-4.402793646E-1	9.650253296E0	9.679693566E0
3.506135090E-1	5.838487148E-1	-4.235295951E-1	9.614361763E0	9.641380023E0
3.518094990E-1	5.527420044E-1	-4.139583111E-1	9.580862045E0	9.605717190E0
3.530054360E-1	5.168496966E-1	-4.043870270E-1	9.552147865E0	9.574664032E0
3.542013740E-1	4.809573591E-1	-3.996013701E-1	9.537791252E0	9.558266747E0
3.553973110E-1	4.618147612E-1	-3.972085714E-1	9.533005714E0	9.552447093E0
3.565932490E-1	4.450650215E-1	-4.043870270E-1	9.540184021E0	9.559117265E0
3.577892390E-1	4.259224236E-1	-4.187439680E-1	9.552147865E0	9.570803794E0
3.589851760E-1	4.139583111E-1	-4.211367965E-1	9.559326172E0	9.577548462E0
